# solid angle = 464.07 nsr
0.000000 1.000000e+00
0.000278 9.998407e-01
0.000556 9.993630e-01
0.000834 9.985673e-01
0.001112 9.974544e-01
0.001390 9.960254e-01
0.001668 9.942816e-01
0.001946 9.922246e-01
0.002223 9.898565e-01
0.002501 9.871795e-01
0.002779 9.841960e-01
0.003057 9.809091e-01
0.003335 9.773217e-01
0.003613 9.734372e-01
0.003891 9.692593e-01
0.004169 9.647919e-01
0.004447 9.600391e-01
0.004725 9.550055e-01
0.005003 9.496956e-01
0.005281 9.441144e-01
0.005559 9.382671e-01
0.005837 9.321589e-01
0.006115 9.257954e-01
0.006392 9.191825e-01
0.006670 9.123261e-01
0.006948 9.052324e-01
0.007226 8.979078e-01
0.007504 8.903587e-01
0.007782 8.825918e-01
0.008060 8.746140e-01
0.008338 8.664321e-01
0.008616 8.580534e-01
0.008894 8.494851e-01
0.009172 8.407344e-01
0.009450 8.318088e-01
0.009728 8.227157e-01
0.010006 8.134629e-01
0.010283 8.040579e-01
0.010561 7.945085e-01
0.010839 7.848224e-01
0.011117 7.750074e-01
0.011395 7.650714e-01
0.011673 7.550222e-01
0.011951 7.448676e-01
0.012229 7.346155e-01
0.012507 7.242738e-01
0.012785 7.138501e-01
0.013063 7.033523e-01
0.013341 6.927882e-01
0.013619 6.821653e-01
0.013897 6.714914e-01
0.014175 6.607739e-01
0.014452 6.500203e-01
0.014730 6.392381e-01
0.015008 6.284344e-01
0.015286 6.176165e-01
0.015564 6.067915e-01
0.015842 5.959664e-01
0.016120 5.851478e-01
0.016398 5.743427e-01
0.016676 5.635575e-01
0.016954 5.527987e-01
0.017232 5.420725e-01
0.017510 5.313851e-01
0.017788 5.207425e-01
0.018066 5.101505e-01
0.018344 4.996147e-01
0.018621 4.891407e-01
0.018899 4.787337e-01
0.019177 4.683988e-01
0.019455 4.581411e-01
0.019733 4.479653e-01
0.020011 4.378759e-01
0.020289 4.278774e-01
0.020567 4.179741e-01
0.020845 4.081699e-01
0.021123 3.984687e-01
0.021401 3.888742e-01
0.021679 3.793898e-01
0.021957 3.700188e-01
0.022235 3.607643e-01
0.022513 3.516292e-01
0.022790 3.426162e-01
0.023068 3.337280e-01
0.023346 3.249667e-01
0.023624 3.163347e-01
0.023902 3.078339e-01
0.024180 2.994661e-01
0.024458 2.912329e-01
0.024736 2.831359e-01
0.025014 2.751763e-01
0.025292 2.673553e-01
0.025570 2.596738e-01
0.025848 2.521326e-01
0.026126 2.447325e-01
0.026404 2.374739e-01
0.026681 2.303572e-01
0.026959 2.233826e-01
0.027237 2.165502e-01
0.027515 2.098598e-01
0.027793 2.033114e-01
0.028071 1.969046e-01
0.028349 1.906389e-01
0.028627 1.845138e-01
0.028905 1.785286e-01
0.029183 1.726825e-01
0.029461 1.669746e-01
0.029739 1.614040e-01
0.030017 1.559696e-01
0.030295 1.506701e-01
0.030573 1.455043e-01
0.030850 1.404708e-01
0.031128 1.355683e-01
0.031406 1.307952e-01
0.031684 1.261499e-01
0.031962 1.216309e-01
0.032240 1.172364e-01
0.032518 1.129647e-01
0.032796 1.088139e-01
0.033074 1.047823e-01
0.033352 1.008679e-01
0.033630 9.706878e-02
0.033908 9.338302e-02
0.034186 8.980859e-02
0.034464 8.634346e-02
0.034742 8.298559e-02
0.035019 7.973290e-02
0.035297 7.658329e-02
0.035575 7.353467e-02
0.035853 7.058492e-02
0.036131 6.773191e-02
0.036409 6.497351e-02
0.036687 6.230760e-02
0.036965 5.973203e-02
0.037243 5.724469e-02
0.037521 5.484345e-02
0.037799 5.252619e-02
0.038077 5.029082e-02
0.038355 4.813525e-02
0.038633 4.605738e-02
0.038911 4.405518e-02
0.039188 4.212659e-02
0.039466 4.026960e-02
0.039744 3.848220e-02
0.040022 3.676243e-02
0.040300 3.510832e-02
0.040578 3.351796e-02
0.040856 3.198944e-02
0.041134 3.052091e-02
0.041412 2.911051e-02
0.041690 2.775645e-02
0.041968 2.645694e-02
0.042246 2.521023e-02
0.042524 2.401462e-02
0.042802 2.286843e-02
0.043079 2.177001e-02
0.043357 2.071774e-02
0.043635 1.971006e-02
0.043913 1.874541e-02
0.044191 1.782230e-02
0.044469 1.693924e-02
0.044747 1.609482e-02
0.045025 1.528761e-02
0.045303 1.451627e-02
0.045581 1.377945e-02
0.045859 1.307586e-02
0.046137 1.240425e-02
0.046415 1.176338e-02
0.046693 1.115207e-02
0.046971 1.056917e-02
0.047248 1.001353e-02
0.047526 9.484091e-03
0.047804 8.979779e-03
0.048082 8.499575e-03
0.048360 8.042488e-03
0.048638 7.607558e-03
0.048916 7.193856e-03
0.049194 6.800485e-03
0.049472 6.426575e-03
0.049750 6.071290e-03
0.050028 5.733819e-03
0.050306 5.413381e-03
0.050584 5.109223e-03
0.050862 4.820619e-03
0.051140 4.546868e-03
0.051417 4.287296e-03
0.051695 4.041255e-03
0.051973 3.808121e-03
0.052251 3.587293e-03
0.052529 3.378193e-03
0.052807 3.180269e-03
0.053085 2.992987e-03
0.053363 2.815836e-03
0.053641 2.648327e-03
0.053919 2.489989e-03
0.054197 2.340372e-03
0.054475 2.199045e-03
0.054753 2.065593e-03
0.055031 1.939623e-03
0.055309 1.820754e-03
0.055586 1.708626e-03
0.055864 1.602892e-03
0.056142 1.503222e-03
0.056420 1.409301e-03
0.056698 1.320827e-03
0.056976 1.237513e-03
0.057254 1.159085e-03
0.057532 1.085281e-03
0.057810 1.015853e-03
0.058088 9.505637e-04
0.058366 8.891872e-04
0.058644 8.315087e-04
0.058922 7.773240e-04
0.059200 7.264386e-04
0.059477 6.786681e-04
0.059755 6.338370e-04
0.060033 5.917787e-04
0.060311 5.523352e-04
0.060589 5.153565e-04
0.060867 4.807004e-04
0.061145 4.482319e-04
0.061423 4.178233e-04
0.061701 3.893536e-04
0.061979 3.627083e-04
0.062257 3.377787e-04
0.062535 3.144624e-04
0.062813 2.926623e-04
0.063091 2.722868e-04
0.063369 2.532491e-04
0.063646 2.354675e-04
0.063924 2.188646e-04
0.064202 2.033676e-04
0.064480 1.889077e-04
0.064758 1.754200e-04
0.065036 1.628435e-04
0.065314 1.511204e-04
0.065592 1.401966e-04
0.065870 1.300210e-04
0.066148 1.205456e-04
0.066426 1.117251e-04
0.066704 1.035170e-04
0.066982 9.588135e-05
0.067260 8.878065e-05
0.067538 8.217963e-05
0.067815 7.604517e-05
0.068093 7.034622e-05
0.068371 6.505362e-05
0.068649 6.014006e-05
0.068927 5.557991e-05
0.069205 5.134918e-05
0.069483 4.742538e-05
0.069761 4.378745e-05
0.070039 4.041571e-05
0.070317 3.729172e-05
0.070595 3.439824e-05
0.070873 3.171916e-05
0.071151 2.923942e-05
0.071429 2.694495e-05
0.071707 2.482263e-05
0.071984 2.286018e-05
0.072262 2.104618e-05
0.072540 1.936995e-05
0.072818 1.782154e-05
0.073096 1.639169e-05
0.073374 1.507176e-05
0.073652 1.385370e-05
0.073930 1.273002e-05
0.074208 1.169376e-05
0.074486 1.073843e-05
0.074764 9.858006e-06
0.075042 9.046883e-06
0.075320 8.299855e-06
0.075598 7.612086e-06
0.075875 6.979086e-06
0.076153 6.396685e-06
0.076431 5.861018e-06
0.076709 5.368498e-06
0.076987 4.915799e-06
0.077265 4.499840e-06
0.077543 4.117766e-06
0.077821 3.766933e-06
0.078099 3.444894e-06
0.078377 3.149382e-06
0.078655 2.878303e-06
0.078933 2.629718e-06
0.079211 2.401837e-06
0.079489 2.193005e-06
0.079767 2.001692e-06
0.080044 1.826487e-06
0.080322 1.666087e-06
0.080600 1.519288e-06
0.080878 1.384983e-06
0.081156 1.262148e-06
0.081434 1.149840e-06
0.081712 1.047193e-06
0.081990 9.534050e-07
0.082268 8.677403e-07
0.082546 7.895211e-07
0.082824 7.181239e-07
0.083102 6.529751e-07
0.083380 5.935476e-07
0.083658 5.393567e-07
0.083936 4.899573e-07
0.084213 4.449405e-07
0.084491 4.039312e-07
0.084769 3.665848e-07
0.085047 3.325854e-07
0.085325 3.016431e-07
0.085603 2.734925e-07
0.085881 2.478900e-07
0.086159 2.246126e-07
0.086437 2.034562e-07
0.086715 1.842339e-07
0.086993 1.667745e-07
0.087271 1.509216e-07
0.087549 1.365321e-07
0.087827 1.234752e-07
0.088105 1.116314e-07
0.088382 1.008915e-07
0.088660 9.115585e-08
0.088938 8.233340e-08
0.089216 7.434114e-08
0.089494 6.710332e-08
0.089772 6.055088e-08
0.090050 5.462086e-08
0.090328 4.925590e-08
0.090606 4.440374e-08
0.090884 4.001681e-08
0.091162 3.605181e-08
0.091440 3.246933e-08
0.091718 2.923353e-08
0.091996 2.631181e-08
0.092273 2.367455e-08
0.092551 2.129485e-08
0.092829 1.914824e-08
0.093107 1.721254e-08
0.093385 1.546759e-08
0.093663 1.389511e-08
0.093941 1.247851e-08
0.094219 1.120277e-08
0.094497 1.005425e-08
0.094775 9.020599e-09
0.095053 8.090639e-09
0.095331 7.254239e-09
0.095609 6.502234e-09
0.095887 5.826328e-09
0.096165 5.219019e-09
0.096442 4.673524e-09
0.096720 4.183712e-09
0.096998 3.744041e-09
0.097276 3.349509e-09
0.097554 2.995596e-09
0.097832 2.678225e-09
0.098110 2.393715e-09
0.098388 2.138747e-09
0.098666 1.910329e-09
0.098944 1.705762e-09
0.099222 1.522616e-09
0.099500 1.358701e-09
0.099778 1.212046e-09
0.100056 1.080876e-09
0.100334 9.635947e-10
0.100611 8.587654e-10
0.100889 7.650965e-10
0.101167 6.814274e-10
0.101445 6.067148e-10
0.101723 5.400217e-10
0.102001 4.805067e-10
0.102279 4.274146e-10
0.102557 3.800676e-10
0.102835 3.378579e-10
0.103113 3.002402e-10
0.103391 2.667259e-10
0.103669 2.368772e-10
0.103947 2.103018e-10
0.104225 1.866484e-10
0.104503 1.656026e-10
0.104780 1.468831e-10
0.105058 1.302381e-10
0.105336 1.154425e-10
0.105614 1.022952e-10
0.105892 9.061632e-11
0.106170 8.024522e-11
0.106448 7.103846e-11
0.106726 6.286798e-11
0.107004 5.561951e-11
0.107282 4.919109e-11
0.107560 4.349180e-11
0.107838 3.844058e-11
0.108116 3.396519e-11
0.108394 3.000128e-11
0.108671 2.649154e-11
0.108949 2.338494e-11
0.109227 2.063607e-11
0.109505 1.820453e-11
0.109783 1.605437e-11
0.110061 1.415367e-11
0.110339 1.247401e-11
0.110617 1.099018e-11
0.110895 9.679780e-12
0.111173 8.522904e-12
0.111451 7.501902e-12
0.111729 6.601107e-12
0.112007 5.806625e-12
0.112285 5.106136e-12
0.112563 4.488722e-12
0.112840 3.944706e-12
0.113118 3.465518e-12
0.113396 3.043570e-12
0.113674 2.672146e-12
0.113952 2.345301e-12
0.114230 2.057779e-12
0.114508 1.804930e-12
0.114786 1.582646e-12
0.115064 1.387295e-12
0.115342 1.215669e-12
0.115620 1.064936e-12
0.115898 9.325957e-13
0.116176 8.164412e-13
0.116454 7.145261e-13
0.116732 6.251336e-13
0.117009 5.467506e-13
0.117287 4.780433e-13
0.117565 4.178370e-13
0.117843 3.650970e-13
0.118121 3.189122e-13
0.118399 2.784811e-13
0.118677 2.430983e-13
0.118955 2.121435e-13
0.119233 1.850714e-13
0.119511 1.614025e-13
0.119789 1.407159e-13
0.120067 1.226415e-13
0.120345 1.068546e-13
0.120623 9.307027e-14
0.120901 8.103829e-14
0.121178 7.053930e-14
0.121456 6.138096e-14
0.121734 5.339466e-14
0.122012 4.643266e-14
0.122290 4.036556e-14
0.122568 3.508004e-14
0.122846 3.047690e-14
0.123124 2.646934e-14
0.123402 2.298143e-14
0.123680 1.994677e-14
0.123958 1.730732e-14
0.124236 1.501235e-14
0.124514 1.301755e-14
0.124792 1.128421e-14
0.125069 9.778561e-15
0.125347 8.471110e-15
0.125625 7.336135e-15
0.125903 6.351202e-15
0.126181 5.496753e-15
0.126459 4.755740e-15
0.126737 4.113312e-15
0.127015 3.556533e-15
0.127293 3.074140e-15
0.127571 2.656330e-15
0.127849 2.294574e-15
0.128127 1.981453e-15
0.128405 1.710516e-15
0.128683 1.476155e-15
0.128961 1.273499e-15
0.129238 1.098315e-15
0.129516 9.469276e-16
0.129794 8.161467e-16
0.130072 7.032041e-16
0.130350 6.056980e-16
0.130628 5.215459e-16
0.130906 4.489423e-16
0.131184 3.863227e-16
0.131462 3.323315e-16
0.131740 2.857948e-16
0.132018 2.456965e-16
0.132296 2.111568e-16
0.132574 1.814149e-16
0.132852 1.558125e-16
0.133130 1.337807e-16
0.133407 1.148276e-16
0.133685 9.852819e-17
0.133963 8.451552e-17
0.134241 7.247264e-17
0.134519 6.212599e-17
0.134797 5.323953e-17
0.135075 4.560964e-17
0.135353 3.906077e-17
0.135631 3.344157e-17
0.135909 2.862161e-17
0.136187 2.448855e-17
0.136465 2.094564e-17
0.136743 1.790960e-17
0.137021 1.530876e-17
0.137298 1.308144e-17
0.137576 1.117462e-17
0.137854 9.542705e-18
0.138132 8.146517e-18
0.138410 6.952389e-18
0.138688 5.931408e-18
0.138966 5.058749e-18
0.139244 4.313106e-18
0.139522 3.676197e-18
0.139800 3.132341e-18
0.140078 2.668093e-18
0.140356 2.271927e-18
0.140634 1.933969e-18
0.140912 1.645759e-18
0.141190 1.400054e-18
0.141467 1.190652e-18
0.141745 1.012247e-18
0.142023 8.602997e-19
0.142301 7.309282e-19
0.142579 6.208137e-19
0.142857 5.271200e-19
0.143135 4.474241e-19
0.143413 3.796565e-19
0.143691 3.220505e-19
0.143969 2.730981e-19
0.144247 2.315128e-19
0.144525 1.961973e-19
0.144803 1.662159e-19
0.145081 1.407712e-19
0.145359 1.191837e-19
0.145636 1.008745e-19
0.145914 8.535079e-20
0.146192 7.219304e-20
0.146470 6.104425e-20
0.146748 5.160073e-20
0.147026 4.360422e-20
0.147304 3.683519e-20
0.147582 3.110705e-20
0.147860 2.626131e-20
0.148138 2.216336e-20
0.148416 1.869892e-20
0.148694 1.577099e-20
0.148972 1.329729e-20
0.149250 1.120802e-20
0.149528 9.444006e-21
0.149805 7.955093e-21
0.150083 6.698783e-21
0.150361 5.639079e-21
0.150639 4.745501e-21
0.150917 3.992249e-21
0.151195 3.357491e-21
0.151473 2.822758e-21
0.151751 2.372434e-21
0.152029 1.993316e-21
0.152307 1.674248e-21
0.152585 1.405805e-21
0.152863 1.180028e-21
0.153141 9.901952e-22
0.153419 8.306366e-22
0.153696 6.965670e-22
0.153974 5.839510e-22
0.154252 4.893860e-22
0.154530 4.100042e-22
0.154808 3.433893e-22
0.155086 2.875059e-22
0.155364 2.406403e-22
0.155642 2.013500e-22
0.155920 1.684212e-22
0.156198 1.408326e-22
0.156476 1.177257e-22
0.156754 9.837873e-23
0.157032 8.218502e-23
0.157310 6.863502e-23
0.157588 5.730078e-23
0.157865 4.782300e-23
0.158143 3.990018e-23
0.158421 3.327932e-23
0.158699 2.774826e-23
0.158977 2.312909e-23
0.159255 1.927272e-23
0.159533 1.605422e-23
0.159811 1.336894e-23
0.160089 1.112926e-23
0.160367 9.261845e-24
0.160645 7.705311e-24
0.160923 6.408325e-24
0.161201 5.327954e-24
0.161479 4.428310e-24
0.161757 3.679402e-24
0.162034 3.056174e-24
0.162312 2.537702e-24
0.162590 2.106515e-24
0.162868 1.748036e-24
0.163146 1.450099e-24
0.163424 1.202560e-24
0.163702 9.969592e-25
0.163980 8.262466e-25
0.164258 6.845475e-25
0.164536 5.669687e-25
0.164814 4.694359e-25
0.165092 3.885573e-25
0.165370 3.215107e-25
0.165648 2.659485e-25
0.165926 2.199182e-25
0.166203 1.817969e-25
0.166481 1.502358e-25
0.166759 1.241144e-25
0.167037 1.025020e-25
0.167315 8.462607e-26
0.167593 6.984538e-26
0.167871 5.762790e-26
0.168149 4.753238e-26
0.168427 3.919295e-26
0.168705 3.230635e-26
0.168983 2.662132e-26
0.169261 2.192971e-26
0.169539 1.805917e-26
0.169817 1.486703e-26
0.170094 1.223524e-26
0.170372 1.006613e-26
0.170650 8.278922e-27
0.170928 6.806861e-27
0.171206 5.594761e-27
0.171484 4.597036e-27
0.171762 3.776034e-27
0.172040 3.100670e-27
0.172318 2.545287e-27
0.172596 2.088717e-27
0.172874 1.713500e-27
0.173152 1.405239e-27
0.173430 1.152068e-27
0.173708 9.442074e-28
0.173986 7.736035e-28
0.174263 6.336232e-28
0.174541 5.188065e-28
0.174819 4.246600e-28
0.175097 3.474873e-28
0.175375 2.842484e-28
0.175653 2.324443e-28
0.175931 1.900209e-28
0.176209 1.552907e-28
0.176487 1.268677e-28
0.176765 1.036140e-28
0.177043 8.459555e-29
0.177321 6.904594e-29
0.177599 5.633657e-29
0.177877 4.595198e-29
0.178155 3.746966e-29
0.178432 3.054337e-29
0.178710 2.488947e-29
0.178988 2.027571e-29
0.179266 1.651194e-29
0.179544 1.344256e-29
0.179822 1.094025e-29
0.180100 8.900904e-30
0.180378 7.239402e-30
0.180656 5.886171e-30
0.180934 4.784370e-30
0.181212 3.887570e-30
0.181490 3.157863e-30
0.181768 2.564307e-30
0.182046 2.081653e-30
0.182324 1.689306e-30
0.182601 1.370472e-30
0.182879 1.111459e-30
0.183157 9.011109e-31
0.183435 7.303395e-31
0.183713 5.917427e-31
0.183991 4.792948e-31
0.184269 3.880915e-31
0.184547 3.141429e-31
0.184825 2.542037e-31
0.185103 2.056356e-31
0.185381 1.662939e-31
0.185659 1.344361e-31
0.185937 1.086468e-31
0.186215 8.777682e-32
0.186492 7.089316e-32
0.186770 5.723879e-32
0.187048 4.619960e-32
0.187326 3.727757e-32
0.187604 3.006897e-32
0.187882 2.424662e-32
0.188160 1.954544e-32
0.188438 1.575076e-32
0.188716 1.268875e-32
0.188994 1.021876e-32
0.189272 8.226953e-33
0.189550 6.621272e-33
0.189828 5.327280e-33
0.190106 4.284807e-33
0.190384 3.445233e-33
0.190661 2.769284e-33
0.190939 2.225247e-33
0.191217 1.787518e-33
0.191495 1.435437e-33
0.191773 1.152338e-33
0.192051 9.247767e-34
0.192329 7.419176e-34
0.192607 5.950261e-34
0.192885 4.770656e-34
0.193163 3.823682e-34
0.193441 3.063706e-34
0.193719 2.453997e-34
0.193997 1.965000e-34
0.194275 1.572942e-34
0.194553 1.258707e-34
0.194830 1.006927e-34
0.195108 8.052544e-35
0.195386 6.437686e-35
0.195664 5.145033e-35
0.195942 4.110628e-35
0.196220 3.283143e-35
0.196498 2.621398e-35
0.196776 2.092367e-35
0.197054 1.669569e-35
0.197332 1.331780e-35
0.197610 1.061995e-35
0.197888 8.465913e-36
0.198166 6.746629e-36
0.198444 5.374790e-36
0.198722 4.280533e-36
0.198999 3.407970e-36
0.199277 2.712410e-36
0.199555 2.158125e-36
0.199833 1.716562e-36
0.200111 1.364909e-36
0.200389 1.084951e-36
0.200667 8.621398e-37
0.200945 6.848683e-37
0.201223 5.438737e-37
0.201501 4.317682e-37
0.201779 3.426612e-37
0.202057 2.718572e-37
0.202335 2.156147e-37
0.202613 1.709533e-37
0.202890 1.354997e-37
0.203168 1.073645e-37
0.203446 8.504423e-38
0.203724 6.734270e-38
0.204002 5.330867e-38
0.204280 4.218585e-38
0.204558 3.337317e-38
0.204836 2.639305e-38
0.205114 2.086621e-38
0.205392 1.649145e-38
0.205670 1.302975e-38
0.205948 1.029141e-38
0.206226 8.125970e-39
0.206504 6.414122e-39
0.206782 5.061286e-39
0.207059 3.992511e-39
0.207337 3.148423e-39
0.207615 2.481999e-39
0.207893 1.956013e-39
0.208171 1.541003e-39
0.208449 1.213660e-39
0.208727 9.555472e-40
0.209005 7.520883e-40
0.209283 5.917621e-40
0.209561 4.654651e-40
0.209839 3.660065e-40
0.210117 2.877080e-40
0.210395 2.260877e-40
0.210673 1.776083e-40
0.210951 1.394799e-40
0.211228 1.095018e-40
0.211506 8.593947e-41
0.211784 6.742574e-41
0.212062 5.288352e-41
0.212340 4.146452e-41
0.212618 3.250084e-41
0.212896 2.546679e-41
0.213174 1.994873e-41
0.213452 1.562134e-41
0.213730 1.222877e-41
0.214008 9.569929e-42
0.214286 7.486803e-42
0.214564 5.855255e-42
0.214842 4.577799e-42
0.215120 3.577910e-42
0.215397 2.795527e-42
0.215675 2.183532e-42
0.215953 1.704971e-42
0.216231 1.330872e-42
0.216509 1.038525e-42
0.216787 8.101387e-43
0.217065 6.317764e-43
0.217343 4.925259e-43
0.217621 3.838455e-43
0.217899 2.990511e-43
0.218177 2.329142e-43
0.218455 1.813461e-43
0.218733 1.411504e-43
0.219011 1.098291e-43
0.219288 8.543082e-44
0.219566 6.643138e-44
0.219844 5.164088e-44
0.220122 4.013060e-44
0.220400 3.117592e-44
0.220678 2.421166e-44
0.220956 1.879713e-44
0.221234 1.458881e-44
0.221512 1.131905e-44
0.221790 8.779342e-45
0.222068 6.807308e-45
0.222346 5.276555e-45
0.222624 4.088718e-45
0.222902 3.167273e-45
0.223180 2.452706e-45
0.223457 1.898747e-45
0.223735 1.469434e-45
0.224013 1.136829e-45
0.224291 8.792281e-46
0.224569 6.797820e-46
0.224847 5.254113e-46
0.225125 4.059671e-46
0.225403 3.135767e-46
0.225681 2.421355e-46
0.225959 1.869110e-46
0.226237 1.442357e-46
0.226515 1.112685e-46
0.226793 8.580911e-47
0.227071 6.615401e-47
0.227349 5.098479e-47
0.227626 3.928138e-47
0.227904 3.025481e-47
0.228182 2.329506e-47
0.228460 1.793060e-47
0.228738 1.379708e-47
0.229016 1.061308e-47
0.229294 8.161264e-48
0.229572 6.273862e-48
0.229850 4.821410e-48
0.230128 3.704033e-48
0.230406 2.844705e-48
0.230684 2.184043e-48
0.230962 1.676281e-48
0.231240 1.286158e-48
0.231518 9.865138e-49
0.231795 7.564387e-49
0.232073 5.798370e-49
0.232351 4.443240e-49
0.232629 3.403731e-49
0.232907 2.606587e-49
0.233185 1.995497e-49
0.233463 1.527184e-49
0.233741 1.168405e-49
0.234019 8.936284e-50
0.234297 6.832540e-50
0.234575 5.222387e-50
0.234853 3.990411e-50
0.235131 3.048090e-50
0.235409 2.327553e-50
0.235686 1.776777e-50
0.235964 1.355901e-50
0.236242 1.034391e-50
0.236520 7.888655e-51
0.236798 6.014270e-51
0.237076 4.583788e-51
0.237354 3.492430e-51
0.237632 2.660067e-51
0.237910 2.025438e-51
0.238188 1.541726e-51
0.238466 1.173159e-51
0.238744 8.924178e-52
0.239022 6.786428e-52
0.239300 5.159123e-52
0.239578 3.920777e-52
0.239855 2.978722e-52
0.240133 2.262297e-52
0.240411 1.717634e-52
0.240689 1.303687e-52
0.240967 9.891859e-53
0.241245 7.503156e-53
0.241523 5.689468e-53
0.241801 4.312817e-53
0.242079 3.268225e-53
0.242357 2.475851e-53
0.242635 1.874989e-53
0.242913 1.419497e-53
0.243191 1.074316e-53
0.243469 8.128141e-54
0.243747 6.147690e-54
0.244024 4.648302e-54
0.244302 3.513487e-54
0.244580 2.654875e-54
0.244858 2.005448e-54
0.245136 1.514399e-54
0.245414 1.143222e-54
0.245692 8.627460e-55
0.245970 6.508737e-55
0.246248 4.908764e-55
0.246526 3.700916e-55
0.246804 2.789382e-55
0.247082 2.101688e-55
0.247360 1.583034e-55
0.247638 1.191993e-55
0.247916 8.972617e-56
0.248193 6.751900e-56
0.248471 5.079190e-56
0.248749 3.819659e-56
0.249027 2.871550e-56
0.249305 2.158091e-56
0.249583 1.621380e-56
0.249861 1.217759e-56
0.250139 9.143233e-57
0.250417 6.862774e-57
0.250695 5.149455e-57
0.250973 3.862642e-57
0.251251 2.896472e-57
0.251529 2.171279e-57
0.251807 1.627136e-57
